,x,y,Velocity,Manually results,Classification results
0,0.568376,0.239836,0.000212,0.0,0.0
1,0.568136,0.240328,5e-05,0.0,0.0
2,0.568094,0.241045,6.5e-05,0.0,0.0
3,0.568063,0.241578,4.9e-05,0.0,0.0
4,0.568326,0.24295,0.000127,0.0,0.0
5,0.565839,0.243711,0.000236,0.0,0.0
6,0.563991,0.244292,0.000176,0.0,0.0
7,0.551152,0.242782,0.001175,1.0,1.0
8,0.541729,0.241275,0.000867,1.0,1.0
9,0.534869,0.240177,0.000632,1.0,1.0
10,0.529264,0.239588,0.000512,1.0,1.0
11,0.524914,0.238528,0.000407,1.0,1.0
12,0.521113,0.237561,0.000357,1.0,1.0
13,0.517403,0.236124,0.000362,1.0,1.0
14,0.513803,0.235379,0.000334,1.0,1.0
15,0.510328,0.23466,0.000323,1.0,1.0
16,0.508119,0.234274,0.000204,0.0,0.0
17,0.505937,0.233344,0.000216,0.0,0.0
18,0.503959,0.232502,0.000195,0.0,0.0
19,0.501923,0.232484,0.000185,0.0,0.0
20,0.500205,0.232951,0.000162,0.0,0.0
21,0.498686,0.233357,0.000143,0.0,0.0
22,0.497358,0.233026,0.000124,0.0,0.0
23,0.496439,0.233196,8.5e-05,0.0,0.0
24,0.495631,0.233318,7.4e-05,0.0,0.0
25,0.495109,0.234242,9.6e-05,0.0,0.0
26,0.494408,0.234391,6.5e-05,0.0,0.0
27,0.49379,0.234515,5.7e-05,0.0,0.0
28,0.492807,0.234088,9.7e-05,0.0,0.0
29,0.492259,0.234441,5.9e-05,0.0,0.0
30,0.491767,0.234734,5.2e-05,0.0,0.0
31,0.491634,0.235003,2.7e-05,0.0,0.0
32,0.491394,0.234387,6e-05,0.0,0.0
33,0.491179,0.233845,5.3e-05,0.0,0.0
34,0.490812,0.233041,8e-05,0.0,0.0
35,0.49047,0.233165,3.3e-05,0.0,0.0
36,0.490165,0.23328,3e-05,0.0,0.0
37,0.489902,0.233594,3.7e-05,0.0,0.0
38,0.489861,0.233614,4e-06,0.0,0.0
39,0.489832,0.233672,6e-06,0.0,0.0
40,0.48999,0.234737,9.8e-05,0.0,0.0
41,0.489719,0.23546,7e-05,0.0,0.0
42,0.489478,0.236087,6.1e-05,0.0,0.0
43,0.48902,0.235919,4.4e-05,0.0,0.0
44,0.488792,0.235667,3.1e-05,0.0,0.0
45,0.488589,0.235441,2.8e-05,0.0,0.0
46,0.488477,0.235878,4.1e-05,0.0,0.0
47,0.488699,0.23599,2.3e-05,0.0,0.0
48,0.488897,0.236091,2e-05,0.0,0.0
49,0.489075,0.236564,4.6e-05,0.0,0.0
50,0.488956,0.23749,8.5e-05,0.0,0.0
51,0.488846,0.238332,7.7e-05,0.0,0.0
52,0.489027,0.238533,2.5e-05,0.0,0.0
53,0.489331,0.239202,6.7e-05,0.0,0.0
54,0.490764,0.240945,0.000205,0.0,0.0
55,0.49186,0.243357,0.000241,0.0,0.0
56,0.492654,0.245436,0.000202,0.0,0.0
57,0.491901,0.24599,8.5e-05,0.0,0.0
58,0.491755,0.246343,3.5e-05,0.0,0.0
59,0.491822,0.246485,1.4e-05,0.0,0.0
60,0.491902,0.246709,2.2e-05,0.0,0.0
61,0.492173,0.246657,2.5e-05,0.0,0.0
62,0.492358,0.246623,1.7e-05,0.0,0.0
63,0.492526,0.246592,1.6e-05,0.0,0.0
64,0.492097,0.2458,8.2e-05,0.0,0.0
65,0.491625,0.245916,4.4e-05,0.0,0.0
66,0.491193,0.246036,4.1e-05,0.0,0.0
67,0.491453,0.247927,0.000174,0.0,0.0
68,0.492011,0.249414,0.000144,0.0,0.0
69,0.49254,0.250826,0.000137,0.0,0.0
70,0.492033,0.250407,6e-05,0.0,0.0
71,0.491512,0.2501,5.5e-05,0.0,0.0
72,0.49105,0.249828,4.9e-05,0.0,0.0
73,0.490767,0.247911,0.000176,0.0,0.0
74,0.490573,0.246476,0.000132,0.0,0.0
75,0.490415,0.245115,0.000125,0.0,0.0
76,0.490331,0.245509,3.7e-05,0.0,0.0
77,0.490586,0.247127,0.000149,0.0,0.0
78,0.490873,0.248774,0.000152,0.0,0.0
79,0.491603,0.24999,0.000129,0.0,0.0
80,0.491821,0.250528,5.3e-05,0.0,0.0
81,0.492041,0.251021,4.9e-05,0.0,0.0
82,0.492371,0.251268,3.7e-05,0.0,0.0
83,0.492469,0.249885,0.000126,0.0,0.0
84,0.492587,0.248596,0.000118,0.0,0.0
85,0.491978,0.248312,6.1e-05,0.0,0.0
86,0.491696,0.248271,2.6e-05,0.0,0.0
87,0.491449,0.248234,2.3e-05,0.0,0.0
88,0.491444,0.24776,4.3e-05,0.0,0.0
89,0.491027,0.24633,0.000135,0.0,0.0
90,0.490623,0.244918,0.000134,0.0,0.0
91,0.490349,0.244733,3e-05,0.0,0.0
92,0.490514,0.245271,5.1e-05,0.0,0.0
93,0.490627,0.245601,3.2e-05,0.0,0.0
94,0.490713,0.246349,6.9e-05,0.0,0.0
95,0.49063,0.24705,6.4e-05,0.0,0.0
96,0.490562,0.247744,6.3e-05,0.0,0.0
97,0.490863,0.246659,0.000102,0.0,0.0
98,0.491019,0.246008,6.1e-05,0.0,0.0
99,0.491166,0.245401,5.7e-05,0.0,0.0
100,0.490672,0.246313,9.4e-05,0.0,0.0
101,0.490029,0.247506,0.000123,0.0,0.0
102,0.489422,0.248661,0.000119,0.0,0.0
103,0.463016,0.268272,0.00299,2.0,2.0
104,0.427671,0.295211,0.00404,2.0,2.0
105,0.394553,0.320458,0.003786,2.0,2.0
106,0.368301,0.340572,0.003007,2.0,2.0
107,0.348095,0.350488,0.002046,2.0,2.0
108,0.333142,0.357846,0.001515,2.0,2.0
109,0.322877,0.360108,0.000956,2.0,1.0
110,0.32106,0.360056,0.000165,0.0,0.0
111,0.319684,0.360089,0.000125,0.0,0.0
112,0.320424,0.36141,0.000138,0.0,0.0
113,0.316217,0.368776,0.000771,1.0,1.0
114,0.312936,0.374458,0.000596,1.0,1.0
115,0.309096,0.382153,0.000782,1.0,1.0
116,0.305083,0.388562,0.000687,1.0,1.0
117,0.302044,0.393412,0.00052,1.0,1.0
118,0.293373,0.408315,0.001567,1.0,1.0
119,0.285733,0.423856,0.001574,1.0,1.0
120,0.279895,0.435742,0.001204,1.0,1.0
121,0.273135,0.446297,0.001139,1.0,1.0
122,0.26792,0.452554,0.00074,1.0,1.0
123,0.264051,0.457197,0.000549,1.0,1.0
124,0.260425,0.464157,0.000713,1.0,1.0
125,0.257674,0.469605,0.000555,1.0,1.0
126,0.255616,0.473676,0.000415,1.0,1.0
127,0.256784,0.475585,0.000203,1.0,1.0
128,0.255637,0.485662,0.000922,1.0,1.0
129,0.254704,0.49347,0.000715,1.0,1.0
130,0.252759,0.497867,0.000437,1.0,1.0
131,0.252754,0.493894,0.000361,1.0,1.0
132,0.25273,0.490906,0.000272,1.0,1.0
133,0.253341,0.491005,5.6e-05,0.0,0.0
134,0.253608,0.492919,0.000176,0.0,0.0
135,0.253788,0.494474,0.000142,0.0,0.0
136,0.253386,0.494677,4.1e-05,0.0,0.0
137,0.252955,0.492947,0.000162,0.0,0.0
138,0.252614,0.491569,0.000129,0.0,0.0
139,0.251475,0.490911,0.00012,0.0,0.0
140,0.250587,0.489954,0.000119,0.0,0.0
141,0.249854,0.489166,9.8e-05,0.0,0.0
142,0.250407,0.48985,8e-05,0.0,0.0
143,0.250814,0.492505,0.000244,0.0,0.0
144,0.251146,0.494852,0.000215,0.0,0.0
145,0.250493,0.498314,0.00032,0.0,0.0
146,0.25063,0.500971,0.000242,0.0,0.0
147,0.250763,0.503282,0.00021,0.0,0.0
148,0.25043,0.504069,7.8e-05,0.0,0.0
149,0.249498,0.503434,0.000102,0.0,0.0
150,0.248721,0.5029,8.6e-05,0.0,0.0
151,0.24764,0.502717,0.0001,0.0,0.0
152,0.247061,0.502467,5.7e-05,0.0,0.0
153,0.246567,0.502257,4.9e-05,0.0,0.0
154,0.246269,0.502937,6.8e-05,0.0,0.0
155,0.246764,0.504923,0.000186,0.0,0.0
156,0.247196,0.506653,0.000162,0.0,0.0
157,0.247807,0.506536,5.7e-05,0.0,0.0
158,0.247411,0.505035,0.000141,0.0,0.0
159,0.247104,0.503899,0.000107,0.0,0.0
160,0.246383,0.502439,0.000148,0.0,0.0
161,0.246029,0.500924,0.000141,0.0,0.0
162,0.245721,0.4996,0.000124,0.0,0.0
163,0.24588,0.498252,0.000123,0.0,0.0
164,0.245691,0.498776,5.1e-05,0.0,0.0
165,0.245519,0.499251,4.6e-05,0.0,0.0
166,0.245043,0.499763,6.4e-05,0.0,0.0
167,0.244397,0.49845,0.000133,0.0,0.0
168,0.2438,0.497251,0.000122,0.0,0.0
169,0.247095,0.499152,0.000346,1.0,1.0
170,0.253907,0.502342,0.000684,1.0,1.0
171,0.261559,0.505925,0.000768,1.0,1.0
172,0.321774,0.553509,0.006977,2.0,2.0
173,0.387243,0.61538,0.008189,2.0,2.0
174,0.440464,0.665921,0.006672,2.0,2.0
175,0.47811,0.700379,0.00464,2.0,2.0
176,0.500766,0.707072,0.002148,2.0,2.0
177,0.515682,0.711468,0.001414,2.0,1.0
178,0.527005,0.710528,0.001033,2.0,1.0
179,0.53663,0.713245,0.000909,1.0,1.0
180,0.543062,0.715062,0.000608,1.0,1.0
181,0.545909,0.721289,0.000622,1.0,1.0
182,0.548736,0.726288,0.000522,1.0,1.0
183,0.550682,0.729721,0.000359,1.0,1.0
184,0.550637,0.731631,0.000174,0.0,0.0
185,0.549912,0.732403,9.6e-05,0.0,0.0
186,0.549418,0.732924,6.5e-05,0.0,0.0
187,0.55058,0.733536,0.000119,0.0,0.0
188,0.548874,0.73014,0.000346,1.0,1.0
189,0.547651,0.727712,0.000247,1.0,1.0
190,0.545745,0.724578,0.000333,1.0,1.0
191,0.543563,0.726599,0.00027,1.0,1.0
192,0.541876,0.72816,0.000209,1.0,1.0
193,0.532883,0.731723,0.000879,1.0,1.0
194,0.526747,0.733731,0.000587,1.0,1.0
195,0.521924,0.735343,0.000462,1.0,1.0
196,0.519051,0.736278,0.000275,1.0,1.0
197,0.515261,0.736897,0.000349,1.0,1.0
198,0.512144,0.737404,0.000287,1.0,1.0
199,0.50957,0.737167,0.000235,1.0,0.0
200,0.50846,0.73913,0.000205,0.0,0.0
201,0.507461,0.740876,0.000183,0.0,0.0
202,0.507043,0.741469,6.6e-05,0.0,0.0
203,0.506643,0.742016,6.2e-05,0.0,0.0
204,0.506283,0.742525,5.7e-05,0.0,0.0
205,0.505993,0.747177,0.000424,0.0,1.0
206,0.505198,0.748389,0.000132,0.0,0.0
207,0.504523,0.749429,0.000113,0.0,0.0
208,0.504071,0.749002,5.7e-05,0.0,0.0
209,0.503894,0.749458,4.4e-05,0.0,0.0
210,0.503758,0.749832,3.6e-05,0.0,0.0
211,0.502467,0.750283,0.000124,0.0,0.0
212,0.501436,0.750416,9.5e-05,0.0,0.0
213,0.500556,0.750632,8.2e-05,0.0,0.0
214,0.500644,0.752345,0.000156,0.0,0.0
215,0.50092,0.75309,7.2e-05,0.0,0.0
216,0.501165,0.753734,6.3e-05,0.0,0.0
217,0.501543,0.753579,3.7e-05,0.0,0.0
218,0.501878,0.755556,0.000182,0.0,0.0
219,0.502179,0.757333,0.000164,0.0,0.0
220,0.5034,0.760601,0.000317,0.0,0.0
221,0.504577,0.762082,0.000172,0.0,0.0
222,0.505605,0.763402,0.000152,0.0,0.0
223,0.508171,0.762241,0.000256,0.0,0.0
224,0.510403,0.761118,0.000227,0.0,0.0
225,0.512375,0.760122,0.000201,0.0,0.0
226,0.514126,0.760632,0.000166,0.0,0.0
227,0.516108,0.761207,0.000188,0.0,0.0
228,0.51789,0.761726,0.000169,0.0,0.0
229,0.519585,0.760205,0.000207,0.0,0.0
230,0.520855,0.758448,0.000197,0.0,0.0
231,0.521968,0.756906,0.000173,0.0,0.0
232,0.523631,0.755427,0.000202,0.0,0.0
233,0.525309,0.754771,0.000164,0.0,0.0
234,0.526825,0.754182,0.000148,0.0,0.0
235,0.528162,0.75386,0.000125,0.0,0.0
236,0.529228,0.752979,0.000126,0.0,0.0
237,0.530164,0.752198,0.000111,0.0,0.0
238,0.531255,0.752223,9.9e-05,0.0,0.0
239,0.532217,0.752512,9.1e-05,0.0,0.0
240,0.53307,0.75276,8.1e-05,0.0,0.0
241,0.532906,0.753045,3e-05,0.0,0.0
242,0.532415,0.7534,5.5e-05,0.0,0.0
243,0.534073,0.750671,0.00029,1.0,1.0
244,0.5357,0.747325,0.000338,1.0,1.0
245,0.537637,0.744291,0.000327,1.0,1.0
246,0.536937,0.745164,0.000102,0.0,0.0
247,0.536802,0.74522,1.3e-05,0.0,0.0
248,0.536755,0.745137,9e-06,0.0,0.0
249,0.536739,0.744993,1.3e-05,0.0,0.0
250,0.53634,0.744904,3.7e-05,0.0,0.0
251,0.536065,0.745492,5.9e-05,0.0,0.0
252,0.535816,0.746019,5.3e-05,0.0,0.0
253,0.53643,0.748333,0.000218,0.0,0.0
254,0.536562,0.749595,0.000115,0.0,0.0
255,0.536671,0.750719,0.000103,0.0,0.0
256,0.535824,0.751059,8.3e-05,0.0,0.0
257,0.535391,0.751812,7.9e-05,0.0,0.0
258,0.535009,0.752481,7e-05,0.0,0.0
259,0.539347,0.751285,0.000409,1.0,1.0
260,0.545763,0.748431,0.000638,1.0,1.0
261,0.552126,0.745594,0.000633,1.0,1.0
262,0.588127,0.714078,0.00435,2.0,2.0
263,0.626515,0.680626,0.004629,2.0,2.0
264,0.659283,0.652199,0.003944,2.0,2.0
265,0.683503,0.629369,0.003026,2.0,2.0
266,0.701384,0.611352,0.002308,2.0,2.0
267,0.714234,0.59844,0.001656,2.0,2.0
268,0.723457,0.589229,0.001185,2.0,1.0
269,0.728632,0.585384,0.000586,1.0,1.0
270,0.732249,0.582706,0.000409,1.0,1.0
271,0.735067,0.581083,0.000296,1.0,1.0
272,0.738373,0.578747,0.000368,1.0,1.0
273,0.740761,0.577068,0.000265,1.0,1.0
274,0.741914,0.572361,0.000441,1.0,1.0
275,0.742465,0.567595,0.000436,1.0,1.0
276,0.742874,0.564052,0.000324,1.0,1.0
277,0.743326,0.561031,0.000278,1.0,1.0
278,0.743472,0.560091,8.6e-05,0.0,0.0
279,0.743583,0.559383,6.5e-05,0.0,0.0
280,0.744501,0.558976,9.1e-05,0.0,0.0
281,0.745187,0.560393,0.000143,0.0,0.0
282,0.745723,0.561479,0.00011,0.0,0.0
283,0.74528,0.562744,0.000122,0.0,0.0
284,0.745897,0.560539,0.000208,0.0,0.0
285,0.746403,0.558704,0.000173,0.0,0.0
286,0.747196,0.555844,0.00027,0.0,0.0
287,0.746726,0.554045,0.000169,0.0,0.0
288,0.746354,0.552573,0.000138,0.0,0.0
289,0.744864,0.550642,0.000222,0.0,0.0
290,0.7441,0.548168,0.000235,0.0,0.0
291,0.743469,0.546099,0.000197,0.0,0.0
292,0.74365,0.544657,0.000132,0.0,0.0
293,0.743832,0.543582,9.9e-05,0.0,0.0
294,0.743983,0.542683,8.3e-05,0.0,0.0
295,0.744042,0.540367,0.000211,0.0,0.0
296,0.743926,0.539459,8.3e-05,0.0,0.0
297,0.743829,0.53867,7.2e-05,0.0,0.0
298,0.744053,0.538191,4.8e-05,0.0,0.0
299,0.743668,0.537471,7.4e-05,0.0,0.0
300,0.743347,0.536851,6.3e-05,0.0,0.0
301,0.742854,0.536159,7.7e-05,0.0,0.0
302,0.742716,0.536065,1.5e-05,0.0,0.0
303,0.742599,0.535969,1.4e-05,0.0,0.0
304,0.746109,0.529021,0.000708,1.0,1.0
305,0.749546,0.522099,0.000702,1.0,1.0
306,0.75266,0.51582,0.000637,1.0,1.0
307,0.755295,0.510905,0.000507,1.0,1.0
308,0.757645,0.505555,0.000531,1.0,1.0
309,0.75965,0.500988,0.000453,1.0,1.0
310,0.76048,0.499011,0.000195,0.0,0.0
311,0.760855,0.499339,4.5e-05,0.0,0.0
312,0.761162,0.4996,3.7e-05,0.0,0.0
313,0.761759,0.497837,0.000169,0.0,0.0
314,0.762033,0.494841,0.000273,0.0,0.0
315,0.762268,0.492272,0.000234,0.0,0.0
316,0.762245,0.49077,0.000137,0.0,0.0
317,0.762331,0.490789,8e-06,0.0,0.0
318,0.762403,0.490807,7e-06,0.0,0.0
319,0.762436,0.48849,0.000211,0.0,0.0
320,0.762922,0.484857,0.000333,0.0,1.0
321,0.763343,0.481713,0.000288,0.0,1.0
322,0.764177,0.481205,8.9e-05,0.0,0.0
323,0.764517,0.481645,5.1e-05,0.0,0.0
324,0.764802,0.48201,4.2e-05,0.0,0.0
325,0.765559,0.482048,6.9e-05,0.0,0.0
326,0.76634,0.482103,7.1e-05,0.0,0.0
327,0.767005,0.482137,6.1e-05,0.0,0.0
328,0.766884,0.482481,3.3e-05,0.0,0.0
329,0.766696,0.482766,3.1e-05,0.0,0.0
330,0.766533,0.483009,2.7e-05,0.0,0.0
331,0.766157,0.482189,8.2e-05,0.0,0.0
332,0.765669,0.482063,4.6e-05,0.0,0.0
333,0.765231,0.481894,4.3e-05,0.0,0.0
334,0.764956,0.4831,0.000112,0.0,0.0
335,0.764812,0.484074,9e-05,0.0,0.0
336,0.764686,0.484893,7.5e-05,0.0,0.0
337,0.764708,0.485347,4.1e-05,0.0,0.0
338,0.764445,0.485169,2.9e-05,0.0,0.0
339,0.764199,0.484977,2.8e-05,0.0,0.0
340,0.763813,0.484248,7.5e-05,0.0,0.0
341,0.763764,0.483701,5e-05,0.0,0.0
342,0.763718,0.4832,4.6e-05,0.0,0.0
343,0.763583,0.483867,6.2e-05,0.0,0.0
344,0.763546,0.484258,3.6e-05,0.0,0.0
345,0.763506,0.484715,4.2e-05,0.0,0.0
