,x,y,Velocity,manually results,Classification results
0,0.243078,0.277005,3.2e-05,0.0,0.0
1,0.243276,0.277221,2.7e-05,0.0,0.0
2,0.243172,0.275761,0.000133,0.0,0.0
3,0.243246,0.274062,0.000155,0.0,0.0
4,0.24323,0.27296,0.0001,0.0,0.0
5,0.242274,0.273444,9.7e-05,0.0,0.0
6,0.244304,0.269546,0.0004,1.0,1.0
7,0.245344,0.265949,0.00034,1.0,1.0
8,0.247207,0.261644,0.000426,1.0,1.0
9,0.245594,0.262034,0.000151,0.0,0.0
10,0.245053,0.262871,9.1e-05,0.0,0.0
11,0.244206,0.264875,0.000198,0.0,0.0
12,0.243338,0.266451,0.000164,0.0,0.0
13,0.242338,0.267103,0.000108,0.0,0.0
14,0.241935,0.267614,5.9e-05,0.0,0.0
15,0.241578,0.268013,4.9e-05,0.0,0.0
16,0.241145,0.268685,7.3e-05,0.0,0.0
17,0.240042,0.269848,0.000146,0.0,0.0
18,0.238882,0.271253,0.000166,0.0,0.0
19,0.237798,0.272321,0.000138,0.0,0.0
20,0.237273,0.273013,7.9e-05,0.0,0.0
21,0.237475,0.273777,7.2e-05,0.0,0.0
22,0.238621,0.275475,0.000186,0.0,0.0
23,0.241621,0.28011,0.000502,1.0,1.0
24,0.247339,0.28527,0.0007,1.0,1.0
25,0.258128,0.293047,0.001209,2.0,2.0
26,0.269689,0.299804,0.001217,2.0,2.0
27,0.280471,0.307686,0.001214,2.0,2.0
28,0.288133,0.31588,0.00102,2.0,2.0
29,0.293462,0.322016,0.000739,2.0,2.0
30,0.297167,0.325224,0.000446,1.0,1.0
31,0.300962,0.326572,0.000366,1.0,1.0
32,0.303228,0.328506,0.000271,1.0,1.0
33,0.305013,0.330011,0.000212,1.0,1.0
34,0.306212,0.3315,0.000174,0.0,0.0
35,0.307529,0.33242,0.000146,0.0,0.0
36,0.309158,0.332387,0.000148,0.0,0.0
37,0.309571,0.331936,5.6e-05,0.0,0.0
38,0.310035,0.331941,4.2e-05,0.0,0.0
39,0.310705,0.332213,6.6e-05,0.0,0.0
40,0.312272,0.332083,0.000143,0.0,0.0
41,0.313715,0.332397,0.000134,0.0,0.0
42,0.315172,0.33169,0.000147,0.0,0.0
43,0.316322,0.331337,0.000109,0.0,0.0
44,0.317573,0.329694,0.000188,0.0,0.0
45,0.318503,0.329641,8.5e-05,0.0,0.0
46,0.319067,0.329816,5.4e-05,0.0,0.0
47,0.319791,0.330386,8.4e-05,0.0,0.0
48,0.320213,0.330586,4.2e-05,0.0,0.0
49,0.319967,0.33053,2.3e-05,0.0,0.0
50,0.319348,0.330364,5.8e-05,0.0,0.0
51,0.318729,0.330492,5.8e-05,0.0,0.0
52,0.318595,0.330675,2.1e-05,0.0,0.0
53,0.31872,0.330867,2.1e-05,0.0,0.0
54,0.318638,0.330756,1.3e-05,0.0,0.0
55,0.318866,0.330931,2.6e-05,0.0,0.0
56,0.318777,0.331527,5.5e-05,0.0,0.0
57,0.318813,0.332964,0.000131,0.0,0.0
58,0.318349,0.33364,7.5e-05,0.0,0.0
59,0.317694,0.333059,8e-05,0.0,0.0
60,0.317511,0.331213,0.000169,0.0,0.0
61,0.3179,0.329521,0.000158,0.0,0.0
62,0.318826,0.328644,0.000116,0.0,0.0
63,0.319132,0.32795,6.9e-05,0.0,0.0
64,0.319283,0.327385,5.3e-05,0.0,0.0
65,0.318836,0.326537,8.7e-05,0.0,0.0
66,0.318825,0.326477,6e-06,0.0,0.0
67,0.317993,0.326417,7.6e-05,0.0,0.0
68,0.317315,0.325031,0.00014,0.0,0.0
69,0.317097,0.322822,0.000202,0.0,0.0
70,0.316988,0.321401,0.00013,0.0,0.0
71,0.317275,0.321355,2.6e-05,0.0,0.0
72,0.316897,0.321774,5.1e-05,0.0,0.0
73,0.317968,0.321827,9.7e-05,0.0,0.0
74,0.319085,0.322015,0.000103,0.0,0.0
75,0.319872,0.322268,7.5e-05,0.0,0.0
76,0.320314,0.321927,5.1e-05,0.0,0.0
77,0.320995,0.320599,0.000136,0.0,0.0
78,0.322307,0.31914,0.000178,0.0,0.0
79,0.323798,0.31804,0.000168,0.0,0.0
80,0.325035,0.318418,0.000118,0.0,0.0
81,0.326175,0.31732,0.000144,0.0,0.0
82,0.32738,0.316146,0.000153,0.0,0.0
83,0.328462,0.315005,0.000143,0.0,0.0
84,0.329005,0.315478,6.5e-05,0.0,0.0
85,0.329549,0.315893,6.2e-05,0.0,0.0
86,0.329145,0.311454,0.000405,1.0,1.0
87,0.328975,0.306167,0.000481,1.0,1.0
88,0.32874,0.301871,0.000391,1.0,1.0
89,0.328981,0.302491,6e-05,0.0,0.0
90,0.329634,0.304302,0.000175,0.0,0.0
91,0.330584,0.3066,0.000226,0.0,0.0
92,0.331574,0.305704,0.000121,0.0,0.0
93,0.332232,0.304342,0.000137,0.0,0.0
94,0.333382,0.303365,0.000137,0.0,0.0
95,0.335756,0.305416,0.000285,1.0,1.0
96,0.338661,0.307636,0.000332,1.0,1.0
97,0.341568,0.310593,0.000377,1.0,1.0
98,0.343146,0.314147,0.000354,1.0,1.0
99,0.3453,0.315055,0.000212,1.0,1.0
100,0.34716,0.315352,0.000171,1.0,1.0
101,0.350189,0.314134,0.000297,1.0,1.0
102,0.352598,0.315097,0.000236,1.0,1.0
103,0.354615,0.314702,0.000187,1.0,1.0
104,0.355485,0.316439,0.000177,1.0,1.0
105,0.356209,0.318815,0.000226,1.0,1.0
106,0.356,0.321838,0.000275,1.0,1.0
107,0.356487,0.324023,0.000204,1.0,1.0
108,0.356789,0.324364,4.1e-05,0.0,0.0
109,0.357905,0.324761,0.000108,0.0,0.0
110,0.358395,0.325916,0.000114,0.0,0.0
111,0.358486,0.325257,6.1e-05,0.0,0.0
112,0.358702,0.325716,4.6e-05,0.0,0.0
113,0.359433,0.324693,0.000114,0.0,0.0
114,0.360155,0.323363,0.000138,0.0,0.0
115,0.35884,0.321198,0.00023,0.0,0.0
116,0.357355,0.319665,0.000194,0.0,0.0
117,0.356116,0.31974,0.000113,0.0,0.0
118,0.356615,0.320151,5.9e-05,0.0,0.0
119,0.357427,0.319738,8.3e-05,0.0,0.0
120,0.358081,0.31897,9.2e-05,0.0,0.0
121,0.35928,0.320179,0.000155,0.0,0.0
122,0.361188,0.324569,0.000435,1.0,1.0
123,0.366432,0.336563,0.00119,2.0,2.0
124,0.370706,0.368251,0.002907,2.0,2.0
125,0.378873,0.418335,0.004613,2.0,2.0
126,0.384095,0.479639,0.005593,2.0,2.0
127,0.396049,0.53541,0.005185,2.0,2.0
128,0.403313,0.58364,0.004434,2.0,2.0
129,0.410472,0.611878,0.002648,2.0,2.0
130,0.414481,0.626279,0.001359,2.0,2.0
131,0.416952,0.634096,0.000745,2.0,2.0
132,0.418314,0.64403,0.000912,2.0,2.0
133,0.413734,0.652319,0.000861,2.0,2.0
134,0.410931,0.654873,0.000345,1.0,1.0
135,0.408533,0.656112,0.000245,1.0,1.0
136,0.410333,0.654573,0.000215,1.0,1.0
137,0.412874,0.653581,0.000248,1.0,1.0
138,0.416161,0.649844,0.000452,1.0,1.0
139,0.418808,0.646587,0.000382,1.0,1.0
140,0.420384,0.644355,0.000248,1.0,1.0
141,0.41954,0.645905,0.00016,1.0,1.0
142,0.417784,0.649699,0.00038,1.0,1.0
143,0.415781,0.652906,0.000344,1.0,1.0
144,0.41569,0.654544,0.000149,1.0,1.0
145,0.414637,0.658382,0.000362,1.0,1.0
146,0.414166,0.661937,0.000326,1.0,1.0
147,0.412765,0.664002,0.000227,0.0,1.0
148,0.41271,0.661926,0.000189,0.0,0.0
149,0.412361,0.66128,6.7e-05,0.0,0.0
150,0.413054,0.662215,0.000106,0.0,0.0
151,0.412315,0.665311,0.000289,0.0,1.0
152,0.411636,0.66842,0.000289,1.0,1.0
153,0.409362,0.6675,0.000223,1.0,1.0
154,0.406674,0.665668,0.000296,1.0,1.0
155,0.404452,0.663548,0.000279,1.0,1.0
156,0.40395,0.664443,9.3e-05,0.0,0.0
157,0.404692,0.665535,0.00012,0.0,0.0
158,0.405891,0.666204,0.000125,0.0,0.0
159,0.405241,0.669248,0.000283,1.0,1.0
160,0.403853,0.671616,0.000249,1.0,1.0
161,0.403124,0.675743,0.000381,1.0,1.0
162,0.40174,0.675215,0.000135,1.0,1.0
163,0.408701,0.670663,0.000756,2.0,2.0
164,0.418369,0.662052,0.001177,2.0,2.0
165,0.443846,0.656981,0.002362,2.0,2.0
166,0.466092,0.64926,0.002141,2.0,2.0
167,0.488577,0.637698,0.002298,2.0,2.0
168,0.503502,0.626508,0.001696,2.0,2.0
169,0.512314,0.613794,0.001406,2.0,2.0
170,0.522864,0.604698,0.001266,2.0,2.0
171,0.524556,0.594893,0.000905,2.0,2.0
172,0.526115,0.587444,0.000692,1.0,1.0
173,0.525759,0.584254,0.000292,1.0,1.0
174,0.526662,0.581795,0.000238,1.0,1.0
175,0.53143,0.587422,0.000671,1.0,1.0
176,0.535644,0.589719,0.000436,1.0,1.0
177,0.540202,0.58716,0.000475,1.0,1.0
178,0.541913,0.58015,0.000656,1.0,1.0
179,0.543744,0.575136,0.000485,1.0,1.0
180,0.544466,0.572167,0.000278,1.0,1.0
181,0.543227,0.567568,0.000433,1.0,1.0
182,0.544138,0.564099,0.000326,1.0,1.0
183,0.545652,0.560276,0.000374,1.0,1.0
184,0.547289,0.558251,0.000237,1.0,1.0
185,0.548698,0.554088,0.0004,1.0,1.0
186,0.549537,0.551258,0.000268,1.0,1.0
187,0.549194,0.546796,0.000407,1.0,1.0
188,0.549679,0.543883,0.000268,1.0,1.0
189,0.549506,0.542065,0.000166,0.0,0.0
190,0.548912,0.539976,0.000197,0.0,0.0
191,0.547798,0.538741,0.000151,0.0,0.0
192,0.547135,0.537461,0.000131,0.0,0.0
193,0.54852,0.537529,0.000126,0.0,0.0
194,0.54903,0.53818,7.5e-05,0.0,0.0
195,0.549526,0.537938,5e-05,0.0,0.0
196,0.550829,0.539452,0.000182,0.0,0.0
197,0.552606,0.539753,0.000164,0.0,0.0
198,0.554443,0.539632,0.000167,0.0,0.0
199,0.554708,0.539326,3.7e-05,0.0,0.0
200,0.553281,0.540605,0.000174,0.0,0.0
201,0.551789,0.542536,0.000222,1.0,1.0
202,0.549474,0.54241,0.000211,1.0,1.0
203,0.551944,0.543793,0.000257,1.0,1.0
204,0.562311,0.550402,0.001118,2.0,2.0
205,0.600491,0.577621,0.004263,2.0,2.0
206,0.660019,0.606842,0.006028,2.0,2.0
207,0.725597,0.636094,0.006528,2.0,2.0
208,0.780778,0.656834,0.005359,2.0,2.0
209,0.817461,0.672243,0.003617,2.0,2.0
210,0.836468,0.678294,0.001813,2.0,1.0
211,0.850581,0.680712,0.001302,2.0,1.0
212,0.86266,0.673512,0.001278,2.0,1.0
213,0.871877,0.666405,0.001058,2.0,1.0
214,0.877944,0.657847,0.000954,2.0,1.0
215,0.888912,0.645251,0.001518,2.0,1.0
216,0.897318,0.641378,0.000841,2.0,1.0
217,0.904959,0.637722,0.00077,2.0,1.0
218,0.899563,0.646848,0.000964,2.0,1.0
219,0.893963,0.653618,0.000799,1.0,1.0
220,0.88931,0.661562,0.000837,1.0,1.0
221,0.88659,0.680558,0.001744,1.0,1.0
222,0.888226,0.691915,0.001043,1.0,1.0
223,0.885781,0.698337,0.000625,1.0,1.0
224,0.887809,0.687576,0.000995,1.0,1.0
225,0.884182,0.677157,0.001003,1.0,1.0
226,0.880269,0.663854,0.001261,1.0,1.0
227,0.872465,0.65621,0.000993,1.0,1.0
228,0.8669,0.645999,0.001057,1.0,1.0
229,0.862918,0.633308,0.001209,1.0,1.0
230,0.851643,0.618639,0.001682,1.0,1.0
231,0.840138,0.603167,0.001753,1.0,1.0
232,0.829534,0.588906,0.001616,1.0,1.0
233,0.826079,0.58127,0.000762,1.0,1.0
234,0.822379,0.575909,0.000592,1.0,0.0
235,0.817959,0.577299,0.000421,1.0,0.0
236,0.81244,0.576755,0.000504,1.0,0.0
237,0.80984,0.57669,0.000236,1.0,0.0
238,0.809106,0.570711,0.000548,1.0,0.0
239,0.810109,0.566181,0.000422,1.0,0.0
240,0.812276,0.559928,0.000602,1.0,0.0
241,0.817671,0.558796,0.000501,1.0,0.0
242,0.821759,0.554368,0.000548,1.0,0.0
243,0.823899,0.550197,0.000426,0.0,0.0
244,0.825058,0.547039,0.000306,0.0,0.0
245,0.825917,0.546524,9.1e-05,0.0,0.0
246,0.824533,0.547229,0.000141,0.0,0.0
247,0.81908,0.54662,0.000499,0.0,0.0
248,0.813967,0.546807,0.000465,0.0,0.0
249,0.810429,0.54695,0.000322,0.0,0.0
250,0.807523,0.544799,0.000329,0.0,0.0
251,0.804128,0.538381,0.00066,0.0,0.0
252,0.802769,0.531411,0.000646,0.0,0.0
253,0.800933,0.53139,0.000167,0.0,0.0
254,0.798679,0.530313,0.000227,0.0,0.0
255,0.795283,0.530275,0.000309,0.0,0.0
256,0.743797,1.017321,0.044524,2.0,2.0
257,0.745161,1.018978,0.000195,0.0,0.0
258,0.746911,1.019302,0.000162,0.0,0.0
259,0.794549,0.522133,0.045404,2.0,2.0
260,0.792213,0.521602,0.000218,0.0,0.0
261,0.790373,0.521473,0.000168,0.0,0.0
262,0.792653,0.521339,0.000208,0.0,0.0
263,0.795454,0.521913,0.00026,0.0,0.0
264,0.797646,0.52257,0.000208,0.0,0.0
265,0.801952,0.523639,0.000403,0.0,0.0
266,0.806448,0.524741,0.000421,0.0,0.0
267,0.811088,0.525831,0.000433,0.0,0.0
268,0.812921,0.5271,0.000203,0.0,0.0
269,0.81529,0.529669,0.000318,0.0,0.0
270,0.81725,0.531453,0.000241,0.0,0.0
271,0.820963,0.532003,0.000341,0.0,0.0
272,0.825553,0.528626,0.000518,0.0,0.0
273,0.829617,0.526817,0.000404,0.0,0.0
274,0.827247,0.526285,0.000221,0.0,0.0
275,0.823721,0.52904,0.000407,0.0,0.0
276,0.821075,0.530712,0.000285,0.0,0.0
277,0.822054,0.532385,0.000176,0.0,0.0
278,0.823445,0.533897,0.000187,0.0,0.0
279,0.824605,0.535358,0.00017,0.0,0.0
280,0.825026,0.537672,0.000214,0.0,0.0
281,0.824875,0.538883,0.000111,0.0,0.0
282,0.824163,0.540331,0.000147,0.0,0.0
283,0.821198,0.540782,0.000273,0.0,0.0
284,0.819098,0.541984,0.00022,0.0,0.0
285,0.817094,0.543732,0.000242,0.0,0.0
286,0.8156,0.543241,0.000143,0.0,0.0
287,0.813529,0.541165,0.000267,0.0,0.0
288,0.812079,0.539061,0.000232,0.0,0.0
289,0.813511,0.540222,0.000168,0.0,0.0
290,0.815736,0.542126,0.000266,0.0,0.0
291,0.817912,0.543757,0.000247,0.0,0.0
292,0.820211,0.545976,0.000291,0.0,0.0
293,0.821633,0.54738,0.000182,0.0,0.0
294,0.823437,0.548616,0.000199,0.0,0.0
295,0.820412,0.54958,0.000289,0.0,0.0
296,0.817031,0.550022,0.00031,0.0,0.0
297,0.815639,0.551228,0.000167,0.0,0.0
298,0.816394,0.548604,0.000248,0.0,0.0
299,0.817916,0.547636,0.000164,0.0,0.0
300,0.817169,0.546941,9.3e-05,0.0,0.0
301,0.81617,0.547713,0.000115,0.0,0.0
302,0.813747,0.54602,0.000269,0.0,0.0
303,0.813874,0.540992,0.000457,1.0,0.0
304,0.814301,0.531986,0.00082,1.0,1.0
305,0.816819,0.51858,0.00124,1.0,1.0
306,0.816012,0.504426,0.001289,1.0,1.0
307,0.813959,0.491236,0.001213,1.0,1.0
308,0.811771,0.478542,0.001171,1.0,1.0
309,0.810413,0.460728,0.001624,2.0,1.0
310,0.816204,0.435379,0.002364,2.0,1.0
311,0.826887,0.418513,0.001815,2.0,1.0
312,0.836832,0.403245,0.001656,2.0,1.0
313,0.841433,0.388863,0.001373,1.0,1.0
314,0.842866,0.372126,0.001527,1.0,1.0
315,0.846366,0.367265,0.000545,1.0,0.0
316,0.847498,0.364981,0.000232,0.0,0.0
317,0.847459,0.368971,0.000363,0.0,0.0
318,0.84626,0.371858,0.000284,0.0,0.0
319,0.846784,0.372978,0.000112,0.0,0.0
320,0.848825,0.371112,0.000251,0.0,0.0
321,0.850727,0.368962,0.000261,0.0,0.0
322,0.851584,0.370033,0.000125,0.0,0.0
323,0.850749,0.373381,0.000314,0.0,0.0
324,0.848427,0.370001,0.000373,0.0,0.0
325,0.845907,0.365848,0.000442,1.0,0.0
326,0.845674,0.358401,0.000677,1.0,0.0
327,0.845095,0.359148,8.6e-05,0.0,0.0
328,0.845375,0.359429,3.6e-05,0.0,0.0
329,0.845522,0.36519,0.000524,0.0,0.0
330,0.845823,0.365744,5.7e-05,0.0,0.0
331,0.845853,0.368321,0.000234,0.0,0.0
332,0.844046,0.368873,0.000172,0.0,0.0
333,0.843427,0.372083,0.000297,0.0,0.0
334,0.842779,0.374238,0.000205,0.0,0.0
335,0.842197,0.376397,0.000203,0.0,0.0
336,0.84212,0.377342,8.6e-05,0.0,0.0
337,0.841876,0.378123,7.4e-05,0.0,0.0
338,0.841997,0.379172,9.6e-05,0.0,0.0
339,0.84163,0.380408,0.000117,0.0,0.0
340,0.841262,0.38194,0.000143,0.0,0.0
341,0.841873,0.384473,0.000237,0.0,0.0
342,0.842145,0.383682,7.6e-05,0.0,0.0
343,0.84251,0.382237,0.000136,0.0,0.0
344,0.842863,0.380842,0.000131,0.0,0.0
345,0.843811,0.38251,0.000174,0.0,0.0
346,0.844927,0.384097,0.000176,0.0,0.0
347,0.846037,0.385678,0.000176,0.0,0.0
348,0.845973,0.388456,0.000253,0.0,0.0
349,0.845459,0.391722,0.000301,0.0,0.0
350,0.844641,0.390843,0.000109,0.0,0.0
351,0.844385,0.389396,0.000134,0.0,0.0
352,0.844193,0.388503,8.3e-05,0.0,0.0
353,0.844083,0.386812,0.000154,0.0,0.0
354,0.844074,0.385183,0.000148,0.0,0.0
355,0.844002,0.382895,0.000208,0.0,0.0
356,0.844341,0.382803,3.2e-05,0.0,0.0
357,0.844606,0.383283,5e-05,0.0,0.0
358,0.845185,0.38347,5.5e-05,0.0,0.0
359,0.845424,0.381596,0.000172,0.0,0.0
360,0.845713,0.38004,0.000144,0.0,0.0
361,0.845941,0.378557,0.000136,0.0,0.0
362,0.845684,0.380153,0.000147,0.0,0.0
363,0.845081,0.381131,0.000104,0.0,0.0
364,0.844456,0.382361,0.000125,0.0,0.0
365,0.844542,0.384743,0.000217,0.0,0.0
366,0.844976,0.386876,0.000198,0.0,0.0
367,0.845621,0.387739,9.8e-05,0.0,0.0
368,0.84479,0.387457,8e-05,0.0,0.0
369,0.84349,0.386989,0.000126,0.0,0.0
