,x,y,Velocity,manually results,Classification results
0,0.445986,0.432676,2.8e-05,0.0,0.0
1,0.445952,0.432294,3.5e-05,0.0,0.0
2,0.445732,0.431752,5.3e-05,0.0,0.0
3,0.445468,0.431056,6.8e-05,0.0,0.0
4,0.445225,0.430369,6.6e-05,0.0,0.0
5,0.445023,0.430143,2.8e-05,0.0,0.0
6,0.444895,0.430283,1.7e-05,0.0,0.0
7,0.444825,0.430666,3.5e-05,0.0,0.0
8,0.444947,0.430962,2.9e-05,0.0,0.0
9,0.444964,0.430912,5e-06,0.0,0.0
10,0.444864,0.43081,1.3e-05,0.0,0.0
11,0.444668,0.430762,1.8e-05,0.0,0.0
12,0.444552,0.43106,2.9e-05,0.0,0.0
13,0.444475,0.431262,2e-05,0.0,0.0
14,0.444407,0.431438,1.7e-05,0.0,0.0
15,0.444216,0.431454,1.7e-05,0.0,0.0
16,0.443978,0.431609,2.6e-05,0.0,0.0
17,0.444071,0.431794,1.9e-05,0.0,0.0
18,0.44509,0.431424,9.9e-05,0.0,1.0
19,0.447333,0.430093,0.000237,1.0,1.0
20,0.450673,0.427288,0.000397,1.0,1.0
21,0.454842,0.423624,0.000505,1.0,1.0
22,0.459167,0.419485,0.000544,1.0,1.0
23,0.463148,0.415116,0.000537,1.0,1.0
24,0.466236,0.411519,0.000431,1.0,1.0
25,0.468782,0.408527,0.000357,1.0,1.0
26,0.471013,0.406384,0.000281,1.0,1.0
27,0.473039,0.404468,0.000254,1.0,1.0
28,0.475518,0.399925,0.00047,1.0,1.0
29,0.477951,0.387592,0.001143,2.0,2.0
30,0.481378,0.362427,0.002309,2.0,2.0
31,0.486014,0.327866,0.00317,2.0,2.0
32,0.490883,0.297027,0.002838,2.0,2.0
33,0.494522,0.277333,0.001821,2.0,2.0
34,0.497282,0.26152,0.001459,2.0,2.0
35,0.499624,0.253739,0.000739,2.0,2.0
36,0.500522,0.251759,0.000198,1.0,1.0
37,0.500711,0.251646,2e-05,1.0,1.0
38,0.500217,0.25337,0.000163,1.0,1.0
39,0.499745,0.25454,0.000115,1.0,1.0
40,0.499353,0.255354,8.2e-05,1.0,1.0
41,0.499189,0.255395,1.5e-05,1.0,1.0
42,0.498998,0.257041,0.000151,1.0,1.0
43,0.498684,0.258906,0.000172,1.0,1.0
44,0.498474,0.26049,0.000145,1.0,1.0
45,0.498707,0.260665,2.6e-05,0.0,0.0
46,0.498782,0.260763,1.1e-05,0.0,0.0
47,0.498635,0.261099,3.3e-05,0.0,0.0
48,0.498383,0.262943,0.000169,1.0,1.0
49,0.498375,0.26412,0.000107,1.0,1.0
50,0.49861,0.26555,0.000132,1.0,1.0
51,0.498759,0.265587,1.4e-05,0.0,0.0
52,0.498786,0.26587,2.6e-05,0.0,0.0
53,0.498715,0.26547,3.7e-05,0.0,0.0
54,0.498709,0.265568,9e-06,0.0,0.0
55,0.498832,0.265656,1.4e-05,0.0,0.0
56,0.499026,0.265925,3e-05,0.0,0.0
57,0.499178,0.26591,1.4e-05,0.0,0.0
58,0.499384,0.265715,2.6e-05,0.0,0.0
59,0.499582,0.265279,4.4e-05,0.0,0.0
60,0.499704,0.264955,3.1e-05,0.0,0.0
61,0.49984,0.264966,1.2e-05,0.0,0.0
62,0.499778,0.265167,1.9e-05,0.0,0.0
63,0.499837,0.265408,2.3e-05,0.0,0.0
64,0.499759,0.265439,8e-06,0.0,0.0
65,0.499688,0.265304,1.4e-05,0.0,0.0
66,0.499582,0.265114,2e-05,0.0,0.0
67,0.499614,0.264802,2.8e-05,0.0,0.0
68,0.499755,0.264512,2.9e-05,0.0,0.0
69,0.49994,0.264946,4.3e-05,0.0,0.0
70,0.499962,0.265427,4.4e-05,0.0,0.0
71,0.499979,0.2661,6.1e-05,0.0,0.0
72,0.500044,0.266053,7e-06,0.0,0.0
73,0.500172,0.266097,1.2e-05,0.0,0.0
74,0.500276,0.265909,1.9e-05,0.0,0.0
75,0.500349,0.265689,2.1e-05,0.0,0.0
76,0.500431,0.265516,1.7e-05,0.0,0.0
77,0.500452,0.265304,1.9e-05,0.0,0.0
78,0.500427,0.265235,7e-06,0.0,0.0
79,0.500315,0.265141,1.3e-05,0.0,0.0
80,0.50023,0.265175,8e-06,0.0,0.0
81,0.500151,0.26544,2.5e-05,0.0,0.0
82,0.500118,0.265927,4.4e-05,0.0,0.0
83,0.500142,0.266504,5.2e-05,0.0,0.0
84,0.500081,0.267275,7e-05,0.0,0.0
85,0.500066,0.267651,3.4e-05,0.0,0.0
86,0.50003,0.268107,4.2e-05,0.0,0.0
87,0.500118,0.268097,8e-06,0.0,0.0
88,0.500172,0.268155,7e-06,0.0,0.0
89,0.500323,0.268112,1.4e-05,0.0,0.0
90,0.500482,0.268505,3.8e-05,0.0,0.0
91,0.500646,0.268776,2.9e-05,0.0,0.0
92,0.500692,0.268931,1.5e-05,0.0,0.0
93,0.500684,0.268771,1.4e-05,0.0,0.0
94,0.500732,0.268684,9e-06,0.0,0.0
95,0.500876,0.268436,2.6e-05,0.0,0.0
96,0.500909,0.26808,3.2e-05,0.0,0.0
97,0.500978,0.267733,3.2e-05,0.0,0.0
98,0.500936,0.267513,2e-05,0.0,0.0
99,0.501047,0.267247,2.6e-05,0.0,0.0
100,0.501103,0.26695,2.7e-05,0.0,0.0
101,0.501346,0.266968,2.2e-05,0.0,0.0
102,0.501592,0.26729,3.7e-05,0.0,0.0
103,0.501841,0.267612,3.7e-05,0.0,0.0
104,0.501968,0.267757,1.7e-05,0.0,0.0
105,0.501831,0.268067,3.1e-05,0.0,0.0
106,0.501693,0.268184,1.6e-05,0.0,0.0
107,0.501588,0.268165,1e-05,0.0,0.0
108,0.50156,0.268205,4e-06,0.0,0.0
109,0.501184,0.268496,4.3e-05,0.0,0.0
110,0.498894,0.270165,0.000258,1.0,1.0
111,0.490163,0.277837,0.001057,2.0,2.0
112,0.464488,0.304477,0.003363,2.0,2.0
113,0.426139,0.348972,0.00534,2.0,2.0
114,0.382909,0.404163,0.006373,2.0,2.0
115,0.345839,0.455736,0.005774,2.0,2.0
116,0.319759,0.492803,0.00412,2.0,2.0
117,0.301404,0.520039,0.002986,2.0,2.0
118,0.290317,0.536828,0.001829,2.0,2.0
119,0.283213,0.548602,0.00125,2.0,2.0
120,0.280165,0.556133,0.000739,1.0,1.0
121,0.277976,0.561501,0.000527,1.0,1.0
122,0.276775,0.564898,0.000328,1.0,1.0
123,0.274706,0.564245,0.000197,1.0,1.0
124,0.273201,0.563399,0.000157,1.0,1.0
125,0.272262,0.561935,0.000158,0.0,1.0
126,0.272122,0.561333,5.6e-05,0.0,0.0
127,0.271901,0.560433,8.4e-05,0.0,0.0
128,0.271619,0.560069,4.2e-05,0.0,0.0
129,0.271359,0.560303,3.2e-05,0.0,0.0
130,0.271257,0.560786,4.5e-05,0.0,0.0
131,0.271297,0.561163,3.5e-05,0.0,0.0
132,0.271334,0.562325,0.000106,0.0,0.0
133,0.271271,0.563594,0.000116,0.0,0.0
134,0.271538,0.564775,0.00011,0.0,0.0
135,0.272051,0.565759,0.000101,0.0,0.0
136,0.272341,0.56681,9.9e-05,0.0,0.0
137,0.272591,0.567594,7.5e-05,0.0,0.0
138,0.27232,0.568354,7.3e-05,0.0,0.0
139,0.272269,0.569557,0.00011,1.0,0.0
140,0.272022,0.571034,0.000136,1.0,1.0
141,0.272371,0.573274,0.000206,1.0,1.0
142,0.272831,0.575212,0.000181,1.0,1.0
143,0.27333,0.577086,0.000176,1.0,1.0
144,0.273299,0.577865,7.1e-05,0.0,0.0
145,0.273308,0.578661,7.2e-05,0.0,0.0
146,0.273433,0.579044,3.7e-05,0.0,0.0
147,0.27369,0.579262,3.1e-05,0.0,0.0
148,0.273895,0.579407,2.3e-05,0.0,0.0
149,0.274437,0.57998,7.2e-05,0.0,0.0
150,0.274755,0.580674,6.9e-05,0.0,0.0
151,0.27506,0.581163,5.2e-05,0.0,0.0
152,0.275472,0.581355,4.1e-05,0.0,0.0
153,0.275973,0.581762,5.9e-05,0.0,0.0
154,0.276339,0.582111,4.6e-05,0.0,0.0
155,0.276114,0.582279,2.6e-05,0.0,0.0
156,0.275623,0.582048,4.9e-05,0.0,0.0
157,0.27516,0.581973,4.3e-05,0.0,0.0
158,0.274786,0.581749,4e-05,0.0,0.0
159,0.274489,0.581681,2.8e-05,0.0,0.0
160,0.274306,0.581701,1.7e-05,0.0,0.0
161,0.274221,0.581962,2.5e-05,0.0,0.0
162,0.27441,0.58234,3.8e-05,0.0,0.0
163,0.274464,0.582819,4.4e-05,0.0,0.0
164,0.274411,0.583297,4.4e-05,0.0,0.0
165,0.274394,0.583828,4.8e-05,0.0,0.0
166,0.274478,0.584354,4.8e-05,0.0,0.0
167,0.274655,0.584401,1.7e-05,0.0,0.0
168,0.274654,0.584732,3e-05,0.0,0.0
169,0.27467,0.58505,2.9e-05,0.0,0.0
170,0.274787,0.58546,3.9e-05,0.0,0.0
171,0.274912,0.585717,2.6e-05,0.0,0.0
172,0.274977,0.585925,2e-05,0.0,0.0
173,0.274839,0.586243,3.2e-05,0.0,0.0
174,0.27472,0.586474,2.4e-05,0.0,0.0
175,0.274716,0.586742,2.4e-05,0.0,0.0
176,0.274866,0.587023,2.9e-05,0.0,0.0
177,0.275211,0.587012,3.1e-05,0.0,0.0
178,0.275376,0.586858,2e-05,0.0,0.0
179,0.275495,0.586657,2.1e-05,0.0,0.0
180,0.275469,0.58639,2.4e-05,0.0,0.0
181,0.275535,0.586339,8e-06,0.0,0.0
182,0.275641,0.586237,1.3e-05,0.0,0.0
183,0.275677,0.586218,4e-06,0.0,0.0
184,0.275661,0.586195,3e-06,0.0,0.0
185,0.275534,0.586175,1.2e-05,0.0,0.0
186,0.275671,0.586401,2.4e-05,0.0,0.0
187,0.275908,0.586389,2.2e-05,0.0,0.0
188,0.276136,0.586379,2.1e-05,0.0,0.0
189,0.276142,0.58623,1.4e-05,0.0,0.0
190,0.276149,0.5861,1.2e-05,0.0,0.0
191,0.276118,0.586165,6e-06,0.0,0.0
192,0.276004,0.586113,1.1e-05,0.0,0.0
193,0.275842,0.586161,1.5e-05,0.0,0.0
194,0.275711,0.585836,3.2e-05,0.0,0.0
195,0.275836,0.585458,3.6e-05,0.0,0.0
196,0.275937,0.585074,3.6e-05,0.0,0.0
197,0.276071,0.584877,2.2e-05,0.0,0.0
198,0.276104,0.584686,1.8e-05,0.0,0.0
199,0.276164,0.584411,2.6e-05,0.0,0.0
200,0.276259,0.583939,4.4e-05,0.0,0.0
201,0.278182,0.584438,0.000181,1.0,1.0
202,0.28823,0.590012,0.001045,2.0,2.0
203,0.31125,0.606795,0.00259,2.0,2.0
204,0.350739,0.643434,0.004897,2.0,2.0
205,0.395323,0.695337,0.00622,2.0,2.0
206,0.43089,0.741912,0.005327,2.0,2.0
207,0.456072,0.775054,0.003784,2.0,2.0
208,0.472913,0.7964,0.002472,2.0,2.0
209,0.484183,0.809533,0.001573,2.0,2.0
210,0.491264,0.817164,0.000946,2.0,2.0
211,0.495612,0.822723,0.000642,1.0,1.0
212,0.497577,0.827299,0.000453,1.0,1.0
213,0.499253,0.830647,0.00034,1.0,1.0
214,0.500635,0.832479,0.000209,1.0,1.0
215,0.502332,0.833495,0.00018,1.0,1.0
216,0.503565,0.833079,0.000118,1.0,0.0
217,0.504279,0.832173,0.000105,0.0,0.0
218,0.504295,0.831541,5.8e-05,0.0,0.0
219,0.503375,0.832025,9.5e-05,0.0,0.0
220,0.502711,0.832357,6.7e-05,0.0,0.0
221,0.502856,0.833247,8.2e-05,0.0,0.0
222,0.503356,0.833564,5.4e-05,0.0,0.0
223,0.503732,0.834207,6.8e-05,0.0,0.0
224,0.503558,0.833967,2.7e-05,0.0,0.0
225,0.502857,0.834848,0.000102,0.0,0.0
226,0.502294,0.835466,7.6e-05,0.0,0.0
227,0.502145,0.835957,4.7e-05,0.0,0.0
228,0.502246,0.835494,4.3e-05,0.0,0.0
229,0.50226,0.83526,2.1e-05,0.0,0.0
230,0.502393,0.835714,4.3e-05,0.0,0.0
231,0.502977,0.83549,5.7e-05,0.0,0.0
232,0.503646,0.83526,6.4e-05,0.0,0.0
233,0.504104,0.834347,9.3e-05,0.0,0.0
234,0.504473,0.834768,5.1e-05,0.0,0.0
235,0.504775,0.835165,4.5e-05,0.0,0.0
236,0.504993,0.835662,4.9e-05,0.0,0.0
237,0.504979,0.835679,2e-06,0.0,0.0
238,0.504866,0.835776,1.4e-05,0.0,0.0
239,0.504699,0.835905,1.9e-05,0.0,0.0
240,0.504903,0.835754,2.3e-05,0.0,0.0
241,0.505242,0.83551,3.8e-05,0.0,0.0
242,0.505726,0.835302,4.8e-05,0.0,0.0
243,0.505895,0.835584,3e-05,0.0,0.0
244,0.506068,0.835798,2.5e-05,0.0,0.0
245,0.506277,0.835936,2.3e-05,0.0,0.0
246,0.50658,0.835588,4.2e-05,0.0,0.0
247,0.506808,0.835166,4.4e-05,0.0,0.0
248,0.507037,0.834778,4.1e-05,0.0,0.0
249,0.507138,0.834741,1e-05,0.0,0.0
250,0.507203,0.834561,1.7e-05,0.0,0.0
251,0.507303,0.834013,5.1e-05,0.0,0.0
252,0.507487,0.833409,5.7e-05,0.0,0.0
253,0.507605,0.832927,4.5e-05,0.0,0.0
254,0.507689,0.832245,6.2e-05,0.0,0.0
255,0.507708,0.831146,0.0001,0.0,0.0
256,0.507816,0.830124,9.3e-05,0.0,0.0
257,0.507704,0.829602,4.9e-05,0.0,0.0
258,0.507642,0.82914,4.2e-05,0.0,0.0
259,0.507496,0.82877,3.6e-05,0.0,0.0
260,0.50739,0.828142,5.8e-05,0.0,0.0
261,0.507056,0.82752,6.4e-05,0.0,0.0
262,0.506833,0.826985,5.3e-05,0.0,0.0
263,0.506871,0.826536,4.1e-05,0.0,0.0
264,0.507133,0.82612,4.5e-05,0.0,0.0
265,0.50738,0.825577,5.4e-05,0.0,0.0
266,0.507693,0.824626,9.1e-05,0.0,0.0
267,0.508151,0.823876,8e-05,0.0,0.0
268,0.508603,0.823083,8.3e-05,0.0,0.0
269,0.508669,0.822434,5.9e-05,0.0,0.0
270,0.508681,0.821965,4.3e-05,0.0,0.0
271,0.508664,0.821483,4.4e-05,0.0,0.0
272,0.508707,0.821369,1.1e-05,0.0,0.0
273,0.508446,0.820726,6.3e-05,0.0,0.0
274,0.508211,0.820047,6.5e-05,0.0,0.0
275,0.508107,0.818976,9.8e-05,0.0,0.0
276,0.508377,0.818272,6.9e-05,0.0,0.0
277,0.508461,0.8175,7.1e-05,0.0,0.0
278,0.508292,0.816906,5.6e-05,0.0,0.0
279,0.507931,0.816294,6.5e-05,0.0,0.0
280,0.507692,0.815726,5.6e-05,0.0,0.0
281,0.507481,0.815314,4.2e-05,0.0,0.0
282,0.507063,0.815205,3.9e-05,0.0,0.0
283,0.506715,0.815114,3.3e-05,0.0,0.0
284,0.506397,0.814962,3.2e-05,0.0,0.0
285,0.50632,0.814089,8e-05,0.0,0.0
286,0.506134,0.813469,5.9e-05,0.0,0.0
287,0.505984,0.81305,4e-05,0.0,0.0
288,0.505666,0.812689,4.4e-05,0.0,0.0
289,0.505373,0.812187,5.3e-05,0.0,0.0
290,0.505152,0.81204,2.4e-05,0.0,0.0
291,0.50529,0.811769,2.8e-05,0.0,0.0
292,0.506122,0.811245,8.9e-05,0.0,0.0
293,0.508398,0.808764,0.000306,1.0,1.0
294,0.521025,0.797984,0.001509,2.0,2.0
295,0.56219,0.761172,0.00502,2.0,2.0
296,0.614366,0.70973,0.006661,2.0,2.0
297,0.670404,0.648374,0.007554,2.0,2.0
298,0.714352,0.593373,0.0064,2.0,2.0
299,0.743285,0.560416,0.003987,2.0,2.0
300,0.760069,0.54063,0.002359,2.0,2.0
301,0.769186,0.529364,0.001318,2.0,2.0
302,0.774259,0.522721,0.00076,2.0,1.0
303,0.777669,0.518905,0.000465,1.0,1.0
304,0.780164,0.517484,0.000261,1.0,1.0
305,0.781893,0.517443,0.000157,1.0,1.0
306,0.782368,0.518108,7.4e-05,1.0,0.0
307,0.782547,0.518696,5.6e-05,1.0,0.0
308,0.782663,0.518948,2.5e-05,1.0,0.0
309,0.782579,0.521092,0.000195,1.0,1.0
310,0.778721,0.5239,0.000434,1.0,1.0
311,0.773737,0.526583,0.000515,1.0,1.0
312,0.766757,0.530129,0.000712,1.0,1.0
313,0.760791,0.533657,0.00063,1.0,1.0
314,0.755796,0.536448,0.00052,1.0,1.0
315,0.752082,0.538604,0.00039,1.0,1.0
316,0.749419,0.540281,0.000286,1.0,1.0
317,0.74726,0.541379,0.00022,1.0,1.0
318,0.745694,0.54155,0.000143,1.0,1.0
319,0.744625,0.541166,0.000103,0.0,0.0
320,0.743869,0.540839,7.5e-05,0.0,0.0
321,0.742805,0.540278,0.000109,0.0,0.0
322,0.741516,0.540344,0.000117,0.0,0.0
323,0.740395,0.540253,0.000102,0.0,0.0
324,0.739313,0.541084,0.000124,0.0,0.0
325,0.738344,0.541425,9.3e-05,0.0,0.0
326,0.737549,0.541685,7.6e-05,0.0,0.0
327,0.73682,0.54172,6.6e-05,0.0,0.0
328,0.736014,0.54211,8.1e-05,0.0,0.0
329,0.735144,0.542881,0.000106,0.0,0.0
330,0.734512,0.543073,6e-05,0.0,0.0
331,0.733938,0.543079,5.2e-05,0.0,0.0
332,0.73349,0.542764,5e-05,0.0,0.0
333,0.733009,0.542894,4.5e-05,0.0,0.0
334,0.732646,0.542891,3.3e-05,0.0,0.0
335,0.732549,0.542443,4.2e-05,0.0,0.0
336,0.732693,0.541806,5.9e-05,0.0,0.0
337,0.732866,0.54141,3.9e-05,0.0,0.0
338,0.73305,0.541234,2.3e-05,0.0,0.0
339,0.733008,0.541334,1e-05,0.0,0.0
340,0.73298,0.541066,2.5e-05,0.0,0.0
341,0.732783,0.540987,1.9e-05,0.0,0.0
342,0.732677,0.540712,2.7e-05,0.0,0.0
343,0.732688,0.540482,2.1e-05,0.0,0.0
344,0.732566,0.540558,1.3e-05,0.0,0.0
345,0.732401,0.540743,2.3e-05,0.0,0.0
346,0.732143,0.540957,3e-05,0.0,0.0
347,0.732073,0.541164,2e-05,0.0,0.0
348,0.732124,0.541144,5e-06,0.0,0.0
349,0.732093,0.541132,3e-06,0.0,0.0
350,0.732053,0.540917,2e-05,0.0,0.0
351,0.732075,0.540655,2.4e-05,0.0,0.0
352,0.732175,0.540331,3.1e-05,0.0,0.0
353,0.732247,0.540074,2.4e-05,0.0,0.0
354,0.732251,0.540191,1.1e-05,0.0,0.0
355,0.732157,0.540584,3.7e-05,0.0,0.0
356,0.73222,0.540808,2.1e-05,0.0,0.0
357,0.732322,0.540797,9e-06,0.0,0.0
358,0.732339,0.540708,8e-06,0.0,0.0
359,0.732262,0.540679,8e-06,0.0,0.0
360,0.732085,0.539902,7.2e-05,0.0,0.0
361,0.732051,0.539165,6.7e-05,0.0,0.0
362,0.731908,0.53835,7.5e-05,0.0,0.0
363,0.731954,0.538221,1.2e-05,0.0,0.0
364,0.732037,0.538093,1.4e-05,0.0,0.0
365,0.732163,0.537977,1.6e-05,0.0,0.0
366,0.732214,0.538311,3.1e-05,0.0,0.0
367,0.73234,0.538527,2.3e-05,0.0,0.0
368,0.732561,0.538664,2.4e-05,0.0,0.0
369,0.732812,0.538422,3.2e-05,0.0,0.0
